#  Steps           Epot           Temp           Ekin           Etot         Coord0        Coord1        Coord2
       0    -455.079959       0.000100       0.015021    -455.064938       0.423561      0.000000      0.000000
      10    -456.787384       0.011479       1.721901    -455.065483       0.423561      0.000000      0.000000
      20    -460.568597       0.036681       5.502221    -455.066376       0.423561      0.000000      0.000000
      30    -465.073844       0.066713      10.006964    -455.066880       0.423561      0.000000      0.000000
      40    -469.368325       0.095341      14.301165    -455.067161       0.423561      0.000000      0.000000
      50    -473.032882       0.119771      17.965654    -455.067228       0.423561      0.000000      0.000000
      60    -475.848777       0.138542      20.781348    -455.067429       0.423561      0.000000      0.000000
      70    -477.607215       0.150265      22.539760    -455.067455       0.423561      0.000000      0.000000
      80    -478.132569       0.153768      23.065202    -455.067367       0.423561      0.000000      0.000000
      90    -477.419303       0.149014      22.352057    -455.067246       0.423561      0.000000      0.000000
     100    -475.631467       0.137096      20.564446    -455.067021       0.423561      0.000000      0.000000
     110    -473.061288       0.119964      17.994671    -455.066617       0.423561      0.000000      0.000000
     120    -470.053371       0.099914      14.987050    -455.066320       0.423561      0.000000      0.000000
     130    -466.944092       0.079186      11.877908    -455.066184       0.423561      0.000000      0.000000
     140    -464.000136       0.059561       8.934106    -455.066030       0.423561      0.000000      0.000000
     150    -461.426168       0.042401       6.360195    -455.065973       0.423561      0.000000      0.000000
     160    -459.359647       0.028624       4.293673    -455.065974       0.423561      0.000000      0.000000
     170    -457.880444       0.018764       2.814529    -455.065915       0.423561      0.000000      0.000000
     180    -457.027314       0.013076       1.961408    -455.065906       0.423561      0.000000      0.000000
     190    -456.813722       0.011652       1.747808    -455.065914       0.423561      0.000000      0.000000
     200    -457.231254       0.014436       2.165328    -455.065926       0.423561      0.000000      0.000000
     210    -458.249791       0.021226       3.183829    -455.065961       0.423561      0.000000      0.000000
     220    -459.815212       0.031661       4.749188    -455.066024       0.423561      0.000000      0.000000
     230    -461.845561       0.045196       6.779446    -455.066115       0.423561      0.000000      0.000000
     240    -464.228514       0.061082       9.162296    -455.066218       0.423561      0.000000      0.000000
     250    -466.820529       0.078361      11.754184    -455.066345       0.423561      0.000000      0.000000
     260    -469.449842       0.095889      14.383400    -455.066442       0.423561      0.000000      0.000000
     270    -471.909955       0.112289      16.843331    -455.066624       0.423561      0.000000      0.000000
     280    -473.970139       0.126022      18.903319    -455.066821       0.423561      0.000000      0.000000
     290    -475.388647       0.135478      20.321709    -455.066939       0.423561      0.000000      0.000000
     300    -475.949389       0.139215      20.882193    -455.067196       0.423561      0.000000      0.000000
     310    -475.503555       0.136241      20.436211    -455.067345       0.423561      0.000000      0.000000
     320    -474.033763       0.126443      18.966404    -455.067359       0.423561      0.000000      0.000000
     330    -471.681484       0.110762      16.614244    -455.067241       0.423561      0.000000      0.000000
     340    -468.732533       0.091103      13.665512    -455.067021       0.423561      0.000000      0.000000
     350    -465.622025       0.070369      10.555372    -455.066653       0.423561      0.000000      0.000000
     360    -462.862281       0.051973       7.795984    -455.066296       0.423561      0.000000      0.000000
     370    -460.928888       0.039085       5.862732    -455.066156       0.423561      0.000000      0.000000
     380    -460.139534       0.033823       5.073445    -455.066088       0.423561      0.000000      0.000000
     390    -460.617718       0.037011       5.551578    -455.066140       0.423561      0.000000      0.000000
     400    -462.275493       0.048061       7.209151    -455.066342       0.423561      0.000000      0.000000
     410    -464.786758       0.064801       9.720084    -455.066673       0.423561      0.000000      0.000000
     420    -467.660981       0.083960      12.594013    -455.066969       0.423561      0.000000      0.000000
     430    -470.411528       0.102295      15.344301    -455.067226       0.423561      0.000000      0.000000
     440    -472.695805       0.117524      17.628534    -455.067272       0.423561      0.000000      0.000000
     450    -474.304791       0.128250      19.237563    -455.067228       0.423561      0.000000      0.000000
     460    -475.118614       0.133676      20.051371    -455.067243       0.423561      0.000000      0.000000
     470    -475.098779       0.133544      20.031660    -455.067119       0.423561      0.000000      0.000000
     480    -474.295515       0.128190      19.228537    -455.066978       0.423561      0.000000      0.000000
     490    -472.834673       0.118452      17.767829    -455.066844       0.423561      0.000000      0.000000
     500    -470.913952       0.105649      15.847307    -455.066645       0.423561      0.000000      0.000000
     510    -468.745800       0.091195      13.679265    -455.066535       0.423561      0.000000      0.000000
     520    -466.530274       0.076426      11.463886    -455.066387       0.423561      0.000000      0.000000
     530    -464.429825       0.062424       9.363538    -455.066287       0.423561      0.000000      0.000000
     540    -462.572155       0.050040       7.505943    -455.066212       0.423561      0.000000      0.000000
     550    -461.053693       0.039917       5.987544    -455.066149       0.423561      0.000000      0.000000
     560    -459.942753       0.032511       4.876626    -455.066128       0.423561      0.000000      0.000000
     570    -459.282937       0.028112       4.216795    -455.066142       0.423561      0.000000      0.000000
     580    -459.096121       0.026867       4.029978    -455.066144       0.423561      0.000000      0.000000
     590    -459.381198       0.028767       4.315037    -455.066160       0.423561      0.000000      0.000000
     600    -460.112569       0.033642       5.046363    -455.066206       0.423561      0.000000      0.000000
     610    -461.242634       0.041176       6.176358    -455.066276       0.423561      0.000000      0.000000
     620    -462.707212       0.050939       7.640910    -455.066302       0.423561      0.000000      0.000000
     630    -464.432230       0.062439       9.365893    -455.066337       0.423561      0.000000      0.000000
     640    -466.332380       0.075107      11.265978    -455.066402       0.423561      0.000000      0.000000
     650    -468.284794       0.088122      13.218276    -455.066518       0.423561      0.000000      0.000000
     660    -470.109564       0.100286      15.042862    -455.066702       0.423561      0.000000      0.000000
     670    -471.593951       0.110180      16.527070    -455.066881       0.423561      0.000000      0.000000
     680    -472.549080       0.116547      17.482092    -455.066988       0.423561      0.000000      0.000000
     690    -472.856580       0.118596      17.789444    -455.067136       0.423561      0.000000      0.000000
     700    -472.468692       0.116011      17.401639    -455.067053       0.423561      0.000000      0.000000
     710    -471.459107       0.109281      16.392122    -455.066985       0.423561      0.000000      0.000000
     720    -470.114427       0.100318      15.047643    -455.066785       0.423561      0.000000      0.000000
     730    -468.746436       0.091197      13.679592    -455.066844       0.423561      0.000000      0.000000
     740    -467.338209       0.081808      12.271168    -455.067041       0.423561      0.000000      0.000000
     750    -465.679836       0.070752      10.612865    -455.066971       0.423561      0.000000      0.000000
     760    -464.015634       0.059661       8.949135    -455.066499       0.423561      0.000000      0.000000
     770    -463.149404       0.053888       8.083244    -455.066159       0.423561      0.000000      0.000000
     780    -463.540371       0.056493       8.473899    -455.066472       0.423561      0.000000      0.000000
     790    -464.797651       0.064873       9.730892    -455.066759       0.423561      0.000000      0.000000
     800    -466.339985       0.075154      11.273114    -455.066871       0.423561      0.000000      0.000000
     810    -467.878512       0.085411      12.811693    -455.066819       0.423561      0.000000      0.000000
     820    -469.374404       0.095385      14.307759    -455.066645       0.423561      0.000000      0.000000
     830    -470.905503       0.105592      15.838874    -455.066630       0.423561      0.000000      0.000000
     840    -472.440852       0.115827      17.374075    -455.066777       0.423561      0.000000      0.000000
     850    -473.688494       0.124144      18.621591    -455.066904       0.423561      0.000000      0.000000
     860    -474.246714       0.127864      19.179614    -455.067101       0.423561      0.000000      0.000000
     870    -473.864817       0.125318      18.797741    -455.067076       0.423561      0.000000      0.000000
     880    -472.599111       0.116882      17.532251    -455.066859       0.423561      0.000000      0.000000
     890    -470.782981       0.104776      15.716408    -455.066574       0.423561      0.000000      0.000000
     900    -468.837193       0.091806      13.770841    -455.066352       0.423561      0.000000      0.000000
     910    -467.057462       0.079941      11.991126    -455.066336       0.423561      0.000000      0.000000
     920    -465.522927       0.069710      10.456514    -455.066412       0.423561      0.000000      0.000000
     930    -464.176732       0.060736       9.110345    -455.066387       0.423561      0.000000      0.000000
     940    -462.975553       0.052728       7.909273    -455.066280       0.423561      0.000000      0.000000
     950    -461.948182       0.045880       6.881951    -455.066231       0.423561      0.000000      0.000000
     960    -461.182144       0.040773       6.115973    -455.066171       0.423561      0.000000      0.000000
     970    -460.777640       0.038077       5.711555    -455.066085       0.423561      0.000000      0.000000
     980    -460.814579       0.038323       5.748514    -455.066065       0.423561      0.000000      0.000000
     990    -461.331037       0.041766       6.264938    -455.066099       0.423561      0.000000      0.000000
